"Sensitivity Excess Phase - dB SPL/watt (8 ohms, @0.50 meters) (High)"
      "Hz"  "Mag (dB)"       "deg"
20.000000, -33.220, -45.8660
20.600000, -32.811, -51.2694
21.200001, -32.070, -56.1802
21.799999, -31.579, -61.8091
22.400000, -31.047, -64.7620
23.000000, -30.206, -66.3652
23.600000, -29.110, -67.9655
24.299999, -27.815, -71.7942
25.000000, -26.937, -76.8408
25.799999, -25.974, -80.3950
26.500000, -24.977, -84.5840
27.200001, -24.436, -91.0034
28.000000, -24.242, -95.6912
29.000000, -23.543, -99.4653
30.000000, -22.907, -105.3740
30.700001, -22.537, -108.9248
31.500000, -22.096, -113.1218
32.500000, -21.845, -118.9229
33.500000, -22.031, -121.6216
34.500000, -22.012, -120.4453
35.500000, -21.628, -118.0515
36.500000, -20.874, -115.6060
37.500000, -19.912, -114.6658
38.700001, -18.775, -115.4275
40.000000, -17.609, -117.2622
41.200001, -16.559, -119.3711
42.500000, -15.462, -121.9778
43.700001, -14.497, -124.3279
45.000000, -13.368, -126.3799
46.200001, -12.250, -128.8203
47.500000, -11.082, -132.1377
48.700001, -10.030, -135.4399
50.000000, -8.830, -139.0137
51.500000, -7.271, -144.4106
53.000000, -5.732, -152.4175
54.500000, -4.417, -163.5249
56.000000, -3.807, -176.9019
58.000000, -3.733, 170.9539
60.000000, -3.122, 161.0522
61.500000, -2.774, 151.7012
63.000000, -2.652, 142.2632
65.000000, -2.750, 130.1050
67.000000, -3.209, 119.8110
69.000000, -3.647, 111.9236
71.000000, -3.986, 104.5891
73.000000, -4.319, 98.1487
75.000000, -4.657, 92.8674
77.500000, -5.104, 89.0095
80.000000, -5.152, 86.5232
82.500000, -5.116, 80.3364
85.000000, -5.703, 71.7402
87.500000, -6.964, 65.6709
90.000000, -8.528, 66.1418
92.500000, -9.513, 72.3816
95.000000, -9.414, 78.1353
97.500000, -9.021, 78.2390
100.000000, -9.048, 75.2427
103.000000, -9.710, 73.2534
106.000000, -10.482, 77.5884
109.000000, -10.365, 83.2192
112.000000, -9.982, 84.5029
115.000000, -9.971, 83.9924
118.000000, -10.299, 85.1763
122.000000, -10.609, 91.7000
125.000000, -10.187, 98.6812
128.000000, -9.112, 104.1653
132.000000, -7.664, 105.1973
136.000000, -6.604, 103.7495
140.000000, -5.483, 101.3359
145.000000, -3.959, 95.6643
150.000000, -2.615, 82.0264
155.000000, -2.875, 59.7744
160.000000, -5.465, 44.3186
165.000000, -9.897, 55.6853
170.000000, -11.521, 92.2893
175.000000, -8.186, 114.9568
180.000000, -5.834, 113.3511
185.000000, -4.450, 108.6523
190.000000, -3.348, 103.4553
195.000000, -2.558, 97.8296
200.000000, -2.151, 90.6514
206.000000, -2.512, 84.9609
212.000000, -2.721, 85.3137
218.000000, -2.549, 85.3647
224.000000, -2.076, 88.0388
230.000000, -0.550, 87.4839
236.000000, -0.089, 76.8328
243.000000, -1.634, 78.4243
250.000000, -0.331, 94.4756
258.000000, 3.892, 96.7708
265.000000, 5.613, 75.7837
272.000000, 5.503, 51.9456
280.000000, 3.821, 32.3921
290.000000, 0.941, 20.8752
300.000000, -2.603, 26.8701
307.000000, -3.187, 53.7039
315.000000, 0.343, 79.5891
325.000000, 2.412, 62.8223
335.000000, 2.610, 38.0986
345.000000, 0.706, 1.8699
355.000000, -2.110, -76.4976
365.000000, -2.007, 161.6809
375.000000, -0.291, 100.6807
387.000000, 2.517, 80.6909
400.000000, 2.775, 59.3325
412.000000, 2.141, 55.1697
425.000000, 2.292, 46.7488
437.000000, 1.249, 43.5479
450.000000, 0.906, 43.9468
462.000000, 0.292, 44.8337
475.000000, -0.276, 48.0381
487.000000, -0.435, 54.8774
500.000000, 0.525, 62.1169
515.000000, 3.524, 70.0337
530.000000, 6.587, 59.0618
545.000000, 5.762, 36.1587
560.000000, 3.327, 41.2476
580.000000, 4.029, 50.2844
600.000000, 5.304, 41.2148
615.000000, 5.264, 34.0757
630.000000, 5.334, 29.1030
650.000000, 5.611, 19.5073
670.000000, 4.371, 11.0127
690.000000, 3.019, 8.2246
710.000000, 1.481, 12.5952
730.000000, 1.298, 19.7087
750.000000, 1.552, 21.1279
775.000000, 1.847, 24.3921
800.000000, 2.497, 22.2388
825.000000, 2.610, 20.0483
850.000000, 3.031, 15.5203
875.000000, 2.897, 7.2710
900.000000, 1.847, 8.2090
925.000000, 2.709, 18.9451
950.000000, 3.129, 8.5693
975.000000, 1.593, 4.5479
1000.000000, 0.891, 13.9604
1030.000000, 2.088, 17.0737
1060.000000, 2.709, 6.6348
1090.000000, 1.723, 4.9951
1120.000000, 1.482, 1.2881
1150.000000, 0.597, -2.3953
1180.000000, 0.335, 0.0759
1220.000000, 0.070, -4.8699
1250.000000, -1.229, -3.4604
1280.000000, -1.327, -0.3994
1320.000000, -2.268, -11.8125
1360.000000, -3.910, -36.6814
1400.000000, -4.959, -156.1245
1450.000000, -5.128, 8.7017
1500.000000, -3.500, 170.5266
1550.000000, -1.407, 6.9150
1600.000000, -3.632, 135.2048
1650.000000, -5.099, 162.8599
1700.000000, -6.399, -112.8784
1750.000000, -6.219, 128.8438
1800.000000, -2.546, 122.9434
1850.000000, 1.357, 115.0498
1900.000000, 3.057, 75.0347
1950.000000, 3.214, -32.5527
2000.000000, 4.717, 174.8584
2060.000000, 5.149, 95.1313
2120.000000, 5.654, 79.8516
2180.000000, 5.167, 68.9292
2240.000000, 4.722, 68.0815
2300.000000, 4.872, 67.2695
2360.000000, 5.372, 67.3110
2430.000000, 6.011, 61.1201
2500.000000, 5.790, 51.6348
2580.000000, 4.662, 48.2354
2650.000000, 3.934, 47.3721
2720.000000, 2.835, 49.8887
2800.000000, 2.459, 57.6069
2900.000000, 3.129, 63.7329
3000.000000, 3.618, 63.0796
3070.000000, 3.591, 63.8560
3150.000000, 3.796, 67.0137
3250.000000, 4.693, 66.4897
3350.000000, 4.214, 61.9736
3450.000000, 3.678, 65.8540
3550.000000, 3.539, 71.9243
3650.000000, 4.305, 79.3823
3750.000000, 5.177, 83.0073
3870.000000, 7.173, 85.5752
4000.000000, 7.900, 75.5967
4120.000000, 7.580, 72.3608
4250.000000, 7.798, 73.7524
4370.000000, 8.498, 74.2261
4500.000000, 9.224, 69.1743
4620.000000, 9.083, 66.4585
4750.000000, 9.597, 66.8145
4870.000000, 10.463, 62.7124
5000.000000, 10.418, 53.8545
5150.000000, 9.494, 49.1860
5300.000000, 9.063, 51.5195
5450.000000, 9.253, 51.5991
5600.000000, 9.594, 49.4292
5800.000000, 9.578, 43.6226
6000.000000, 9.258, 40.3862
6150.000000, 9.123, 37.6279
6300.000000, 8.874, 34.0967
6500.000000, 7.929, 29.6177
6700.000000, 6.789, 29.9277
6900.000000, 5.645, 34.2124
7100.000000, 5.500, 41.2324
7300.000000, 5.412, 43.3467
7500.000000, 5.263, 49.4575
7750.000000, 6.511, 55.9102
8000.000000, 7.720, 54.6401
8250.000000, 8.421, 48.0986
8500.000000, 8.619, 44.0122
8750.000000, 9.014, 36.4858
9000.000000, 8.223, 28.2437
9250.000000, 6.924, 29.1289
9500.000000, 6.713, 34.8003
9750.000000, 7.340, 36.9878
10000.000000, 8.007, 35.7451
10300.000000, 8.958, 31.9829
10600.000000, 9.717, 22.8628
10900.000000, 9.533, 10.5098
11200.000000, 8.223, 5.0693
11500.000000, 7.634, 8.3296
11800.000000, 8.624, 8.9766
12200.000000, 9.643, -5.7651
12500.000000, 8.657, -16.4077
12800.000000, 7.580, -18.8428
13200.000000, 7.546, -22.4648
13600.000000, 7.688, -35.3149
14000.000000, 6.430, -52.1724
14500.000000, 2.617, -52.9146
15000.000000, 0.982, -42.7944
15500.000000, 0.421, -44.3345
16000.000000, -0.929, -40.1445
16500.000000, -0.356, -32.9585
17000.000000, 0.721, -40.8789
17500.000000, 0.027, -54.4438
18000.000000, -1.506, -61.6919
18500.000000, -3.130, -64.1528
19000.000000, -4.088, -64.2329
19500.000000, -4.794, -69.2368
20000.000000, -6.236, -71.2969
